memory_initialization_radix=2;
memory_initialization_vector=
110100011010,
110100011010,
110111101010,
100101100010,
100101100010,
100101100010,
100101100010,
100101100010,
000101100010,
111010101100,
111010101100,
111010101100,
111010101100,
111010101100,
110100010110,
110100011010,
110100011010,
100101101100,
100101100010,
100101100010,
100101100010,
100111101010,
000101101100,
111010101100,
111010101100,
111010101100,
111010101100,
111010100010,
101011000100,
101011000100,
101011000100,
111010101100,
111010101100,
111010101100,
111010101100,
111010101100,
100101100010,
110100010110,
110100010110,
000101100010,
111010100010,
011000101100,
010111100110,
110100010110,
110100011010,
110100011010,
110100010110,
110100011010,
100101100010,
100101100010,
100101100010,
100101101010,
100101101010,
000101100010,
111010101100,
111010101100,
111000101100,
111010101100,
011000100100,
110100010110,
110100010110,
110100011010,
100101100010,
100101101010,
100111101010,
100101100010,
100101100010,
000101100010,
111010101100,
111010101100,
111010101100,
111010100010,
111010100010,
101011000100,
101011000100,
101011001000,
111010101100,
111010101100,
111010101100,
111010101100,
111010101100,
100101100010,
110100010110,
110100010110,
100101100010,
111010101100,
111010101100,
110100010110,
110100010110,
110100011010,
010100010110,
110100010110,
010111101010,
100101100010,
100101100010,
100101100010,
000101100010,
000101100010,
111010101100,
111010101100,
111010101100,
111010101100,
111010101100,
111010101100,
010100010110,
010100010110,
010111101010,
000101100010,
000101100010,
000101100010,
000101100010,
000101100010,
000110100010,
111010101100,
111010101100,
111010101100,
111000101100,
111010101100,
011000100100,
011000100100,
011011000100,
111010101100,
111010101100,
111010101100,
000110101100,
000110101100,
100101100010,
110100011010,
110100011010,
100101101100,
111000101100,
111010101100,
010111101010,
010111100110,
010111100110,
111000101100,
111000100100,
111000101100,
100111101010,
100111101010,
111010101100,
101001001000,
101011001000,
011000100100,
111010101100,
111010101100,
111010101100,
111010101100,
111010101100,
101001001000,
101011001000,
101011001000,
101011001000,
101011001000,
101011001000,
101011001000,
101011001000,
011000100100,
111010101100,
000110101100,
011011000100,
101011001000,
101011001000,
100111101010,
100111101010,
100111101010,
111010101100,
111010101100,
000110101100,
110110010110,
110100010110,
010111101010,
100101100010,
100101100010,
111000100100,
011011001000,
101011001000,
101011001000,
101011001000,
101001001000,
111010101100,
111010101100,
000110101100,
100101100010,
100101100010,
000101100010,
101011001000,
101011000100,
011000100100,
111010101100,
111010101100,
111010101100,
111010101100,
000110101100,
101011001000,
101011001000,
101011000100,
101011000100,
101011000100,
101011000100,
101011000100,
101011000100,
011000100100,
111010101100,
111010101100,
011011000100,
101011000100,
101011001000,
100101100010,
100111101010,
100101101010,
111010101100,
000110101100,
000110101100,
001110010110,
110100010110,
010111101010,
100101100010,
100101101010,
011000100100,
101011001000,
101011001000,
101011000100,
101011000100,
101011000100,
000101100010,
000101100010,
100101100010,
000101100010,
100101100010,
000110101100,
011011000100,
011000100100,
011000100100,
111000101100,
111000100100,
000101100010,
100101100010,
000101100010,
011000100100,
011000101100,
011000101100,
011000101100,
011000101100,
011000101100,
101000100100,
101000100100,
111010101100,
100101100010,
100101100010,
011000100100,
011011000100,
101011001000,
000101100010,
000110100010,
000101100010,
111010101100,
111010101100,
000110101100,
100101100010,
100101100010,
000101101010,
100111100110,
000111100110,
111001100010,
111010101100,
000110101100,
011000100100,
101000100100,
011000101100,
110100010110,
110100010110,
010100010110,
111000100100,
111010101100,
111010101100,
111010101100,
111010100010,
011000101100,
101011001000,
101011001000,
010111101010,
110100010110,
110100010110,
100111101010,
100101101010,
100101101010,
100111101010,
100111101010,
000101100010,
111010100010,
111010101100,
100111100010,
110110010110,
110100010110,
111010101100,
101011001000,
101011000100,
111010101100,
111010101100,
111010101100,
111010101100,
111010101100,
111000101100,
101011000100,
001011000100,
011010100010,
100100010001,
100100011110,
100100011110,
110100010110,
110100010110,
000110101100,
111010101100,
111010101100,
110100010110,
110100010110,
010100010110,
011000101100,
111010101100,
111010101100,
111010101100,
111010101100,
011000100100,
101011000100,
101011001000,
010111101010,
110100010110,
110100010110,
100101100010,
100101101010,
100101100010,
100101100010,
100111101010,
000101100010,
111000101100,
111000100100,
100101100010,
110100010110,
110110010110,
111000100100,
101011001000,
101011001000,
111010101100,
111010101100,
111010101100,
111010101100,
111010101100,
111010101100,
101011000100,
001011000100,
011010101010,
100100011110,
100111101110,
010100011110,
110100010110,
001100010110,
000110101100,
111010100100,
111010101100,
010111100010,
010111101010,
100111100110,
111001100010,
111001100010,
000101100010,
100111101010,
100111101010,
111010100010,
011000101100,
011000101100,
111010101100,
111010101100,
111010101100,
100101100010,
100101100010,
100101100010,
000110101100,
000110101100,
000101100010,
100111100010,
100111100010,
100111100010,
010111101010,
010111101010,
000101100010,
111010101100,
111010101100,
111010101100,
111010100010,
111010101100,
011000100100,
011000101100,
011000100100,
011000101100,
011000101100,
111010100010,
010100011110,
010100010110,
010111101010,
010111100010,
010111101010,
000110101100,
111010101100,
111010101100,
100101100010,
100101100010,
000101101010,
111001101010,
111001101010,
000111100110,
110100010110,
110100010110,
100101101010,
111010101100,
111010100010,
101011000100,
101011000100,
101011001000,
100101101010,
100101100010,
100101100010,
111000100100,
111000100100,
000101100010,
110100010110,
110100010110,
010111101010,
100101100010,
100101100010,
100101100010,
100101100010,
100111100010,
111010101100,
111010101100,
111010101100,
101011001000,
101011000100,
101000100100,
111010100010,
111010101100,
100101100010,
110100010110,
110100010110,
010111101010,
100101101100,
100101100010,
111010101100,
111010101100,
111010101100,
100101100010,
100101100010,
000101101010,
000101101010,
111001101010,
000111101010,
110100010110,
110100010110,
100101100010,
111000100100,
111010101100,
011011000100,
101011000100,
001011001000,
100101101010,
100101100010,
100101100010,
111010101100,
111010101100,
000101100010,
110110010110,
110100010110,
010111101010,
100101100010,
100101100010,
100101100010,
100101100010,
100111101010,
111010100010,
111010101100,
111010101100,
101001000000,
101011001000,
101011001000,
111010101100,
111010101100,
100101100010,
110100010110,
110100010110,
010111101010,
010111101010,
100101101010,
111010100010,
111010101100,
111010101100,
100101100010,
100101100010,
000101100010,
111010101100,
011010100010,
111001100010,
010111101010,
100101100010,
010111100010,
010111101010,
010100010110,
111000101100,
101011000100,
101011000100,
100101101010,
100101100010,
100101100010,
111010101100,
111010101100,
111010101100,
000101100010,
000110101100,
000101100010,
100101100010,
100101100010,
111000100100,
011000100100,
011000100100,
111000101100,
111010101100,
111010101100,
010111101010,
100111101010,
100111101010,
111000101100,
111010101100,
000110100010,
100101100010,
010111101010,
111000101100,
011000100100,
011000100100,
111010101100,
111010101100,
111010101100,
100111100010,
100101100010,
100101100010,
111010101100,
111010101100,
111010101100,
100101100010,
100101100010,
010111100010,
110100011010,
001100010110,
111000100100,
101011000100,
101011001000,
100101101010,
100101100010,
100101100010,
111010101100,
111010101100,
111010101100,
111010101100,
111010101100,
000101100010,
100111100010,
100111101010,
011000100100,
101011001000,
101011001000,
111010101100,
111010101100,
111010100100,
110100010110,
110100010110,
010111101010,
111000100100,
111010101100,
000110101100,
100101101010,
100101101010,
111000101100,
101011001000,
101011000100,
011010101100,
111010101100,
111010101100,
100101100010,
100101100010,
100101100010,
111010101100,
111010101100,
111010100010,
100101101010,
100101100010,
010111101010,
110100010110,
001110010110,
111000100100,
101011001000,
101011001000,
100101100010,
100101100010,
100101100010,
111010101100,
111010100010,
111010100010,
111010101100,
111010101100,
000101100010,
100111101010,
100111101010,
011000100100,
101011001000,
101011001000,
111010101100,
111010101100,
111010101100,
110110011110,
110110011110,
010100010110,
111010101100,
111010101100,
000110100010,
100101101010,
100111101010,
011000100100,
101011000100,
101011000100,
111000101100,
111000101100,
111010101100,
110100011010,
110100010110,
010111101010,
101011001000,
101011001000,
011010101100,
100111101010,
100101100010,
100101100010,
100101101100,
100101100010,
111010101100,
111010101100,
111010101100,
100101100010,
100101100010,
100101100010,
101011001000,
101011001000,
101011000100,
101011000100,
101011000100,
101011000100,
101011001000,
101011001000,
111000101100,
111010100010,
111010100010,
111010101100,
111010101100,
111010101100,
101011001000,
101011001000,
011011000100,
111010101100,
111010101100,
111010101100,
111010101100,
111010101100,
111010101100,
111010101100,
111010101100,
110100010110,
110100010110,
110100010110,
110100011010,
110100010110,
010100010110,
101011001000,
101011000100,
011000101100,
100101101010,
100101101010,
100101100010,
100101100010,
100101101010,
111010100010,
111010101100,
111010101100,
100101100010,
100101101010,
000101101010,
101011001000,
101011001000,
101011000100,
101011000100,
101011000100,
011011000100,
101011001000,
101011001000,
111000101100,
111010100010,
111010101100,
111010101100,
111010101100,
111010101100,
101011001000,
101011000100,
011000100100,
111010101100,
111010101100,
111010101100,
111010101100,
111010101100,
111010101100,
111010101100,
111010100100,
110111101010,
110100011010,
110100011010,
110100011010,
110100010110,
010111100110,
101011001000,
101011000100,
111010101100,
100101100010,
100101100010,
100101100010,
100101100010,
000101101010,
111010100010,
011010100010,
111010100010,
100101101010,
100101100010,
000101101010,
101011001000,
011011001000,
101011001000,
011011000100,
011011000100,
011011000100,
011011000100,
101011001000,
111010101100,
111010100010,
111010101100,
111010101100,
111010101100,
000110101100,
011011001000,
011011000100,
011000100100,
111010101100,
011010101100,
111010100010,
111010101100,
111010101100,
111010101100,
111010101100,
111010100100,
010111101010,
110100010110,
110100010110,
110100011010,
110100010110,
010100010110,
111010101100,
111010100010,
111010101100,
111010101100,
111010101100,
111010100100,
111010101100,
111010100010,
111001101010,
111001101010,
111001101010,
111010100010,
111000101100,
111010101100,
111010101100,
111010101100,
000101100010,
110110011110,
110100011110,
110110011110,
110110011110,
110110011110,
000101100010,
111000101100,
111010101100,
110100010110,
110100010110,
110100010110,
110100010110,
001110011110,
010100010110,
111010101100,
111010101100,
000101100010,
100111101010,
100111101010,
000110100010,
111010101100,
111010100100,
100101100010,
100101100010,
100101100010,
110100011010,
110100010110,
010100011010,
111010100100,
111010101100,
111010101100,
111010101100,
111010101100,
111010101100,
111010101100,
011010101100,
111001101010,
111001100110,
111001100110,
011010100010,
111010101100,
111010101100,
111010101100,
111010101100,
000101101100,
110100010110,
110100010110,
110100010110,
110100011010,
110100010110,
000101100010,
111010101100,
111000100100,
110100010110,
110100010110,
110100010110,
110100010110,
110100010110,
110100011010,
111000100100,
111010101100,
000110101100,
100101100010,
100101100010,
000110101100,
111010101100,
111010101100,
000101100010,
100101100010,
100101100010,
010111100010,
010111101010,
100111100010,
111010100100,
111010101100,
111010100010,
000101100010,
000101100010,
000101101100,
000101101100,
000101100010,
111001101010,
000101100110,
000101100110,
111010100010,
000110100010,
000110101100,
111000100100,
111000100100,
000110101100,
010100010110,
010111101010,
010111101010,
110100011010,
010100011010,
000110101100,
111000100100,
011000100100,
010111101010,
110100011010,
010111101010,
010111101010,
010111101010,
100111100010,
111010101100,
111000101100,
000101100010,
100111101010,
100111101010,
000101100010,
111010101100,
000110100010,
100101100010,
100101100010,
100101100010,
111000100100,
111000100100,
111010101100,
111010101100,
111010101100,
100101100010,
110100010110,
110100010110,
110100010110,
110100010110,
110100010110,
100111101010,
100101100010,
000101100010,
100101100010,
100101100010,
100101101010,
101011001000,
101011001000,
011000100100,
111000101100,
111000101100,
000110101100,
100101100010,
100111100010,
011000100100,
101011001000,
101011001000,
000101100010,
100101100010,
100101100010,
111000100100,
111010101100,
111010100100,
111010101100,
111010101100,
000101101010,
100100011110,
100100011110,
100111100110,
100101101010,
100101101010,
100101100010,
100101100010,
100101100010,
111010101100,
111010101100,
111010101100,
111010101100,
111000101100,
000101100010,
110100010110,
110100010110,
110100010110,
110100010110,
110100011010,
100111100010,
100101100010,
100111100010,
010101100010,
100101100010,
000101100010,
101011000100,
101011000100,
011000100100,
111010100010,
111010101100,
000101100010,
100101100010,
100111100010,
011000100100,
101011001000,
101011001000,
000101101010,
100111101010,
100111101010,
111010101100,
111010101100,
111010101100,
111010101100,
111010101100,
111001101010,
100100011110,
100100011110,
000111100110,
100101101010,
100101101010,
100101100010,
100101100010,
100111100010,
000101100010,
000101100010,
000101100010,
111010101100,
111010101100,
000110100010,
100111101010,
100101100010,
010111101010,
010111101010,
010111101010,
100101100010,
000110101100,
000110100010,
100101100010,
100101100010,
000101101010,
101011001000,
101011000100,
101000100100,
011000101100,
011000100100,
000110101100,
000101101100,
000101100010,
111010101100,
111010101100,
111010101100,
000101100010,
000110100010,
000110100010,
111010101100,
111010101100,
111010101100,
000110100010,
000110100010,
000101101010,
100111100110,
100111100110,
111001100010,
111010101100,
111010101100,
000110100010,
000110101100,
000101101100,
100101101010,
100101100010,
100101100010,
111010100100,
111010101100,
111010101100,
111010101100,
111010101100,
000101101100,
100101100010,
100101100010,
000110101100,
111010101100,
111010101100,
100101100010,
100101101010,
000101101010,
101011001000,
101011000100,
101011000100,
101011000100,
101011001000,
011000100100,
111010101100,
111000100100,
000101100010,
100111101010,
100111101010,
111010101100,
111010101100,
111010101100,
111010101100,
111010101100,
000110101100,
100101100010,
100101100010,
100101101010,
100101101010,
100101101010,
011000101100,
101011000100,
101011000100,
111010101100,
111010101100,
111010101100,
100101101010,
100111101010,
100101100010,
111010100100,
111010101100,
111010101100,
111010101100,
111010101100,
000101100010,
100111100010,
100111100010,
000110101100,
111010101100,
111010101100,
100101101010,
100111101010,
100111101010,
101011001000,
101011000100,
101011000100,
101011000100,
101011001000,
011000100100,
111010101100,
111010101100,
000101100010,
100101101010,
100111101010,
111010101100,
111010101100,
111010101100,
111010101100,
111010101100,
000110100010,
100101100010,
100101100010,
100101100010,
100101100010,
100101100010,
011000100100,
101011000100,
101011000100,
111010101100,
111010101100,
111010101100,
000110100010,
111010101100,
000110101100,
000101100010,
100101100010,
111010101100,
011011000100,
011000100100,
111010101100,
000110101100,
000110101100,
111010101100,
111010101100,
111010101100,
011000100100,
011000101100,
011000100100,
101011000100,
101011000100,
011000100100,
111010101100,
011000101100,
111010101100,
111010101100,
111010101100,
000101100010,
100101101010,
100101101010,
111010101100,
111010101100,
111010101100,
011011000100,
011011000100,
011000101100,
110100010110,
010111101010,
010111101010,
110100011010,
110100010110,
000110101100,
011010101100,
011000101100,
000101100010,
000101100010,
000101100010,
111010101100,
111010101100,
111010101100,
100101101010,
100111101010,
000110100010,
101011001000,
101011001000,
011000100100,
111010101100,
111010101100,
111010101100,
111010101100,
111010100010,
101011000100,
101011001000,
101011001000,
101011000100,
101011000100,
101011000100,
111010100010,
111010101100,
111010101100,
111010101100,
111010101100,
000101100010,
000101100010,
100111101010,
111010101100,
111010101100,
111010101100,
101011001000,
101011000100,
011000100100,
001100010110,
110100011010,
110100010110,
110100010110,
110100010110,
000101100010,
111010101100,
111010101100,
100111100010,
100101100010,
100101100010,
111010101100,
111010101100,
111010101100,
100101101010,
100101101010,
111010101100,
101011001000,
101011001000,
011000100100,
111010101100,
111000101100,
111010101100,
111010101100,
111010100010,
101011001000,
101011001000,
101011001000,
101011001000,
101011001000,
011011000100,
111010101100,
111010101100,
111010101100,
111010101100,
111010101100,
000101100010,
100111100010,
100101100010,
111000100100,
111000101100,
111010101100,
101011001000,
101011000100,
011000101100,
110110010110,
110100010110,
110100010110,
110100010110,
110110010110,
000101100010,
011000101100,
011010101100,
000101100010,
100101100010,
100111101010,
111010101100,
111010101100,
111010101100,
100111100010,
100101101010,
000101100010,
111010101100,
111010101100,
100111100010,
110100011010,
110100010110,
000110101100,
111010101100,
111010101100,
100101100010,
100101100010,
100101100010,
110100010110,
110100010110,
010111101010,
100101100010,
100101100010,
111010101100,
101011000100,
101011001000,
100111101010,
010100011010,
110100011010,
110100010110,
110100010110,
110100010110,
101011001000,
101011000100,
011000100100,
100101100010,
100101100010,
010111100010,
100101100010,
100101100010,
100111101010,
100100011110,
000100011110,
111001100010,
111010101100,
111010100010,
111010101100,
111010101100,
111010101100,
100111100010,
100101100010,
000101100010,
111010101100,
111000100100,
100111100010,
110100011010,
110100010110,
000101101100,
111000101100,
111010101100,
010101100010,
100101100010,
100101100010,
110110010110,
110100010110,
110100010110,
100101100010,
100111100010,
111010101100,
101011001000,
101011001000,
100111101010,
110100010110,
110100011010,
110100010110,
110100010110,
110100010110,
101011001000,
101011000100,
011000101100,
100111101010,
100101100010,
100101100010,
100101100010,
100101100010,
100111100110,
100100011110,
100100010001,
011010100010,
011010101100,
111010100010,
111010101100,
111010101100,
111010101100,
100101100010,
100101101010,
000101100010,
111010101100,
111010101100,
100111100010,
110100010110,
110100010110,
000110101100,
111010101100,
111000101100,
100101101010,
100101100010,
100101100010,
110100011110,
110100010110,
010111101010,
100101100010,
100101101010,
111010100010,
101011000100,
101011000100,
100111101010,
110100010110,
110100010110,
110100010110,
110100010110,
110100011110,
101011001000,
101011000100,
011000100100,
100101100010,
100101100010,
100101100010,
100101101010,
000101101010,
100111100110,
100100011110,
100100011110,
111001100010,
111010101100,
111010101100,
100101101010,
100111101010,
000101100010,
111000101100,
111010101100,
111010101100,
111010101100,
111010101100,
000101101100,
100101100010,
100101100010,
000110101100,
111010101100,
111010101100,
100101100010,
100101101010,
100101100010,
111000100100,
111000101100,
000110101100,
100101100010,
100101101010,
000101101010,
000101101010,
000101101010,
000101101010,
100101100010,
100101100010,
101001001000,
101001001000,
101011001000,
101011000100,
101011000100,
011000100100,
100101100010,
100101100010,
100101100010,
100101101010,
100111101010,
111010100010,
011000101100,
111010100010,
101011001000,
101011001000,
101011001000,
000101101010,
100111101010,
100101101010,
111010101100,
111010101100,
111010101100,
111010101100,
111010101100,
000101100010,
100101100010,
100101100010,
000110101100,
111010101100,
111010101100,
100101101010,
100101100010,
100101101010,
111000101100,
111010101100,
000110101100,
100101100010,
100111101010,
000101101010,
111001100110,
111001101010,
000101101010,
100101100010,
100111101010,
101011000100,
101011000100,
101011000100,
101011001000,
101011000100,
011000100100,
100111101010,
100101100010,
100101100010,
100101101010,
100111101010,
000110101100,
111010101100,
111010101100,
101011001000,
101011001000,
101011000100,
000101100010,
000101100010,
000110100010,
111010101100,
111000101100,
111010101100,
111010101100,
111010101100,
000101100010,
100101100010,
100101100010,
111010101100,
111010101100,
111010101100,
100101100010,
000101100010,
000101100010,
000110100010,
000110101100,
000110101100,
100101100010,
000101100010,
111001101010,
111001101010,
111001101010,
000101101010,
000101100010,
100101100010,
011000100100,
101000100100,
101011000100,
011000100100,
011000100100,
111000101100,
000101100010,
100101100010,
100101100010,
100101100010,
000101100010,
000101101100,
000110101100,
000110101100,
111000100100,
011000100100,
111000100100,
101011000100,
101011001000,
101011001000,
101011001000,
101011001000,
011000100100,
111010101100,
111010101100,
000101100010,
100101100010,
100111101010,
000110101100,
111010101100,
111010101100,
111010101100,
111010101100,
111010101100,
110100010110,
001110010110,
010111101010,
111000100100,
111000100100,
111010100010,
111010100010,
111010101100,
111010101100,
111010101100,
111010101100,
111010101100,
111010101100,
111010101100,
100111101010,
100111101010,
100101100010,
111010101100,
111000100100,
111010101100,
111010101100,
111010101100,
010111101010,
110100010110,
001100010110,
110100010110,
110100010110,
110100010110,
101011000100,
101011000100,
101011001000,
101011001000,
101011001000,
011000100100,
111010101100,
111010101100,
000101100010,
100101100010,
100101100010,
000110101100,
111010101100,
111010101100,
111010101100,
111010101100,
000110101100,
110100010110,
110100011010,
010111100010,
000110100100,
111010101100,
111010101100,
111010101100,
111010101100,
111010101100,
111010101100,
111010101100,
111010101100,
111010101100,
111010101100,
100111101010,
100111101010,
100101100010,
111000100100,
111010101100,
111010101100,
111010101100,
111000100100,
010111101010,
110100010110,
110100011010,
110100011010,
110100011010,
110100011010,
011000100100,
011000100100,
011000100100,
111010101100,
111000101100,
111010101100,
111010101100,
111010101100,
000110101100,
000101100010,
000101100010,
111010101100,
111010101100,
111010101100,
111010101100,
111010101100,
111010101100,
010111101010,
010111101010,
100111100010,
000110101100,
000101101100,
111010101100,
111010101100,
111010101100,
111010101100,
011000100100,
011000101100,
011000101100,
011000101100,
011000101100,
111010101100,
111010100010,
111010101100,
111010101100,
111010101100,
111010100010,
100101101010,
000101100010,
010111101010,
010111101010,
010111101010,
010111101010,
010111101010,
010111101010,
111010101100,
111010101100,
111010101100,
100111101010,
100111101010,
000101100010,
111010101100,
111010101100,
111010101100,
111010101100,
111010101100,
111010101100,
111010100010,
111010101100,
111010100010,
111010101100,
111010101100,
100101100010,
000101100010,
100101100010,
100101100010,
100111100010,
000101100010,
111010101100,
111010101100,
011000100100,
101011001000,
101011001000,
101011000100,
101011000100,
101011000100,
101011001000,
101011001000,
101011000100,
111010100010,
111010101100,
100101101010,
110100010110,
110100010110,
100111101010,
100101100010,
000101100010,
100101100010,
100101100010,
100101100010,
111010101100,
111010101100,
111010101100,
100101101010,
100111101010,
000101100010,
111010101100,
111010101100,
111010101100,
111010101100,
111010101100,
111010101100,
111010101100,
111010100010,
111010101100,
111010100010,
111010101100,
100111101010,
100111101010,
100111101010,
100101101010,
100111101010,
000101100010,
011000100100,
111010101100,
101011001000,
101011001000,
101011000100,
101011000100,
101011000100,
101011000100,
101011000100,
101011001000,
011011000100,
111010100010,
111010101100,
100101100010,
110100010110,
110100010110,
010111101010,
100101100010,
100101100010,
100101100010,
100101100010,
100101100010,
000101100010,
000101100010,
000101100010,
000110100010,
000110100010,
111010101100,
111010101100,
111010101100,
100101100010,
010111101010,
010111101010,
000110101100,
111010101100,
111010100010,
011000100100,
011011000100,
011000100100,
000110100010,
111010100010,
111010100010,
011000100100,
011000100100,
000101100010,
010111101010,
100111101010,
111010101100,
111000101100,
011000101100,
011000101100,
011000101100,
011000101100,
000110100010,
000110100010,
000110101100,
111010101100,
111010101100,
000110101100,
100101100010,
100101100010,
100101100010,
100101100010,
100101100010,
100101100010,
100101100010,
100101100010,
100101101010,
100101100010,
100101100010,
111010101100,
111010101100,
111010101100,
111010101100,
111000101100,
100111101010,
110100010110,
110100011110,
000110100010,
111010101100,
111010101100,
101011000100,
101011000100,
101011000100,
111010101100,
111010101100,
011000101100,
101011000100,
101011001000,
000110101100,
110100010110,
110100010110,
100101100010,
111010101100,
111010101100,
111010101100,
111010101100,
111010101100,
100111101010,
100101100010,
100101100010,
111010101100,
111010101100,
111010101100,
111010101100,
111000100100,
100101100010,
100101100010,
100101100010,
100101100010,
100101100010,
100101100010,
100101100010,
100101100010,
100101100010,
111010101100,
111000101100,
111000100100,
111010101100,
111000100100,
100111101010,
110100010110,
110110011110,
000110101100,
111000101100,
111010101100,
101011001000,
101011001000,
101011000100,
111010101100,
111010101100,
011000101100,
101011000100,
101011001000,
000101100010,
110100010110,
001100010110,
000110101100,
111000101100,
111010101100,
111010101100,
111010101100,
111010101100,
100101100010,
100101100010,
000101100010,
111010101100,
011000101100,
111010101100,
111010101100,
000110101100,
000110100010,
100101101010,
100101100010,
100101101010,
100101101010,
100111101010,
100101100010,
100101100010,
100101100010,
111010101100,
111010101100,
100101100010,
110100010110,
110100010110,
010111101010,
100101100010,
100101100010,
100101100010,
100101100010,
100101100010,
111000101100,
111010101100,
111010100010,
100100011110,
100111101110,
000111100110,
011010101100,
011000101100,
000110101100,
100111100010,
100101100010,
100101100010,
100101100010,
000101100010,
111010101100,
111010101100,
111010101100,
111010101100,
111010101100,
000101100010,
100100011110,
100100011110,
100111101010,
000101100010,
100101100010,
000110100010,
111010101100,
111010101100,
011000100100,
011000100100,
011000100100,
100101100010,
100101100010,
100101100010,
111010101100,
111000100100,
100101100010,
110100010110,
110100010110,
010111101010,
100101100010,
100101100010,
100101100010,
100101100010,
100101100010,
111010101100,
111010101100,
011010100010,
100100011110,
100100011110,
000111100110,
011010100010,
111010101100,
000101100010,
100101100010,
100101100010,
100101100010,
100111100010,
100101100010,
111010101100,
111010101100,
111010101100,
111010101100,
111010101100,
111010100010,
100100010001,
100100010001,
100111100110,
000101100010,
100111101010,
000110100010,
111010101100,
111010101100,
101011000100,
101011000100,
101011000100,
100101100010,
100101100010,
100101100010,
111010101100,
111010101100,
100101100010,
110100010110,
110100010110,
010111101010,
100101100010,
100101100010,
100101100010,
100101100010,
100101100010,
111010101100,
111010101100,
111010100010,
100100010001,
000100010001,
000111101110,
011010100010,
111010101100,
000110100010,
100101101010,
100101100010,
100101100010,
100101100010,
100111101010,
000110100010,
111010101100,
111010101100,
111010101100,
111010100010,
111001101010,
000100010001,
000100010001,
100111100110,
100101100010,
100101100010,
000110101100,
111010101100,
111010101100,
101011000100,
101011000100,
101011000100;
